BEGIN_SCAN_DATA
	FORMAT=CC-Export V1.9                  
	FILE_CREATION_DATE=07-Feb-2010 17:13:26
	LAST_MODIFIED=07-Feb-2010 17:13:26
	BEGIN_SCAN  1
		TASK_NAME=tba PDD Profiles
		PROGRAM=tbaScan
		COMMENT=QA measurement with MP3
		MEAS_DATE=05-Feb-2010 19:38:15
		LINAC=21IX ABREU
		MODALITY=X
		ISOCENTER=1000.00
		INPLANE_AXIS=Inplane
		CROSSPLANE_AXIS=Crossplane
		DEPTH_AXIS=Depth
		INPLANE_AXIS_DIR=GUN_TARGET
		CROSSPLANE_AXIS_DIR=LEFT_RIGHT
		DEPTH_AXIS_DIR=UP_DOWN
		ENERGY=6.00
		NOMINAL_DMAX=15.00
		SSD=1000.00
		SCD=450.00
		WEDGE_ANGLE=0.00
		FIELD_INPLANE=400.00
		FIELD_CROSSPLANE=400.00
		FIELD_TYPE=RECTANGULAR
		GANTRY=0.00
		GANTRY_UPRIGHT_POSITION=0
		GANTRY_ROTATION=CW
		COLL_ANGLE=0.00
		COLL_OFFSET_INPLANE=0.00
		COLL_OFFSET_CROSSPLANE=0.00
		SCAN_DEVICE=MP3
		SCAN_DEVICE_SETUP=BARA_TARGET_GUN
		ELECTROMETER=TANDEM
		RANGE_FIELD=AUTO
		RANGE_REFERENCE=AUTO
		DETECTOR=THIMBLE_CHAMBER
		DETECTOR_SUBCODE=SEMIFLEX
		DETECTOR_RADIUS=2.75
		DETECTOR_NAME=PTW 31010 Semiflex
		DETECTOR_SN=0000
		DETECTOR_CALIBRATION=300000000.00
		DETECTOR_IS_CALIBRATED=0
		DETECTOR_REFERENCE_CALIBRATION=300000000.00
		REF_FIELD_DEPTH=0.00
		REF_FIELD_DEFINED=WATER_SURFACE
		REF_FIELD_INPLANE=400.00
		REF_FIELD_CROSSPLANE=400.00
		REF_SCAN_POSITIONS=0.00;1.00;2.00;3.00;4.00;5.00;6.00;7.00;8.00;9.00;10.00;11.00;12.00;13.00;14.00;15.00;16.00;17.00;18.00;19.00;20.00;22.50;25.00;27.50;30.00;32.50;35.00;37.50;40.00;42.50;45.00;47.50;50.00;52.50;55.00;57.50;60.00;65.00;70.00;75.00;80.00;85.00;90.00;95.00;100.00;105.00;110.00;115.00;120.00;125.00;130.00;135.00;140.00;145.00;150.00;155.00;160.00;165.00;170.00;175.00;180.00;185.00;190.00;195.00;200.00;205.00;210.00;215.00;220.00;225.00;230.00;235.00;240.00;245.00;250.00;255.00;260.00;265.00;270.00;275.00;280.00;285.00;290.00;295.00;300.00;
		SCAN_CURVETYPE=PDD
		SCAN_OFFAXIS_INPLANE=0.00
		SCAN_OFFAXIS_CROSSPLANE=0.00
		SCAN_ANGLE=0.00
		SCAN_DIAGONAL=NOT_DIAGONAL
		SCAN_DIRECTION=NEGATIVE
		MEAS_PRESET=REFERENCE_DOSEMETER
		MEAS_TIME=0.100
		MEAS_UNIT=A.U.
		SCAN_SPEEDS=20.00; 8.00;40.00; 25.00;100.00; 40.00;400.00; 50.00;
		DELAY_TIMES=20.00; 0.000;150.00; 0.000;400.00; 0.000;
		INCLINATION_ANGLE=0.00
		PRESSURE=1013.20
		TEMPERATURE=20.00
		NORM_TEMPERATURE=20.00
		CORRECTION_FACTOR=1.0000
		BEGIN_DATA
			0.00		668.40E-03		5.2005E+00
			1.00		698.44E-03		5.1933E+00
			2.00		743.16E-03		5.2005E+00
			3.00		798.20E-03		5.1915E+00
			4.00		832.47E-03		5.2005E+00
			5.00		854.62E-03		5.2005E+00
			6.00		866.48E-03		5.2041E+00
			7.00		879.11E-03		5.1969E+00
			8.00		889.04E-03		5.1915E+00
			9.00		892.31E-03		5.1987E+00
			10.00		893.39E-03		5.2005E+00
			11.00		898.48E-03		5.1951E+00
			12.00		897.02E-03		5.1915E+00
			13.00		896.05E-03		5.1951E+00
			14.00		895.67E-03		5.1933E+00
			15.00		893.82E-03		5.1879E+00
			16.00		890.16E-03		5.1951E+00
			17.00		888.00E-03		5.1915E+00
			18.00		885.65E-03		5.1951E+00
			19.00		882.19E-03		5.1951E+00
			20.00		879.20E-03		5.2005E+00
			22.50		871.79E-03		5.1951E+00
			25.00		865.81E-03		5.1915E+00
			27.50		856.94E-03		5.1969E+00
			30.00		849.22E-03		5.1933E+00
			32.50		842.00E-03		5.1951E+00
			35.00		835.36E-03		5.1933E+00
			37.50		826.81E-03		5.1969E+00
			40.00		817.58E-03		5.2005E+00
			42.50		810.05E-03		5.1933E+00
			45.00		802.01E-03		5.2005E+00
			47.50		793.15E-03		5.2041E+00
			50.00		786.28E-03		5.1969E+00
			52.50		779.16E-03		5.2005E+00
			55.00		769.92E-03		5.1951E+00
			57.50		763.34E-03		5.1951E+00
			60.00		757.62E-03		5.1987E+00
			65.00		740.57E-03		5.2041E+00
			70.00		726.86E-03		5.1933E+00
			75.00		710.73E-03		5.2023E+00
			80.00		696.81E-03		5.1951E+00
			85.00		681.43E-03		5.2041E+00
			90.00		666.78E-03		5.1969E+00
			95.00		652.82E-03		5.2005E+00
			100.00		638.06E-03		5.2023E+00
			105.00		624.52E-03		5.1969E+00
			110.00		612.13E-03		5.1933E+00
			115.00		597.85E-03		5.1969E+00
			120.00		585.59E-03		5.1951E+00
			125.00		571.28E-03		5.2023E+00
			130.00		559.40E-03		5.1969E+00
			135.00		545.86E-03		5.2005E+00
			140.00		534.30E-03		5.1951E+00
			145.00		522.84E-03		5.2023E+00
			150.00		511.25E-03		5.2005E+00
			155.00		499.13E-03		5.2005E+00
			160.00		487.36E-03		5.1969E+00
			165.00		476.82E-03		5.2023E+00
			170.00		465.88E-03		5.1969E+00
			175.00		454.83E-03		5.2005E+00
			180.00		445.60E-03		5.1951E+00
			185.00		433.22E-03		5.2023E+00
			190.00		424.12E-03		5.1951E+00
			195.00		415.05E-03		5.1915E+00
			200.00		404.92E-03		5.1969E+00
			205.00		394.67E-03		5.2041E+00
			210.00		385.79E-03		5.1933E+00
			215.00		377.29E-03		5.2005E+00
			220.00		367.98E-03		5.1951E+00
			225.00		359.79E-03		5.1933E+00
			230.00		351.23E-03		5.1969E+00
			235.00		341.52E-03		5.1987E+00
			240.00		333.99E-03		5.2005E+00
			245.00		326.77E-03		5.1987E+00
			250.00		319.38E-03		5.2005E+00
			255.00		311.45E-03		5.2023E+00
			260.00		303.36E-03		5.2041E+00
			265.00		297.20E-03		5.2005E+00
			270.00		290.51E-03		5.1987E+00
			275.00		283.54E-03		5.1933E+00
			280.00		276.63E-03		5.2059E+00
			285.00		269.58E-03		5.1951E+00
			290.00		263.89E-03		5.1951E+00
			295.00		257.68E-03		5.2023E+00
			300.00		251.40E-03		5.1969E+00
		END_DATA
	END_SCAN  1
END_SCAN_DATA
